Band gap (eV),"Voc,sq (V)"
0.5,0.30860839473124346
0.501,0.30951087451938136
0.502,0.31040720409467715
0.503,0.31130230231696077
0.504,0.312194531232697
0.505,0.31308683846643465
0.506,0.3139829809838033
0.507,0.31488053164033414
0.508,0.3157729396584717
0.509,0.3166658255067008
0.51,0.3175598178946163
0.511,0.31843834730373527
0.512,0.3193428182255744
0.513,0.32022776948627113
0.514,0.3211325936998818
0.515,0.3220136827203912
0.516,0.32291885761478434
0.517,0.3237953169627764
0.518,0.32470083995648313
0.519,0.3255821479690826
0.52,0.3264880165107937
0.521,0.3273664274745453
0.522,0.32827263904060255
0.523,0.3291534761982332
0.524,0.33004385774438283
0.525,0.3309338311588121
0.526,0.3318254111298464
0.527,0.3327179287252835
0.528,0.33360950243889703
0.529,0.33450104702254624
0.53,0.33539165737907606
0.531,0.3362807790729778
0.532,0.3371704100050681
0.533,0.3380609510852513
0.534,0.338952150773865
0.535,0.3398423044294786
0.536,0.34073122989656357
0.537,0.341620795883248
0.538,0.34251133993485444
0.539,0.3434018396180569
0.54,0.3442919524393548
0.541,0.3451819746704681
0.542,0.3460720497158898
0.543,0.34696187075905743
0.544,0.347851966476861
0.545,0.3487425931399768
0.546,0.3496329599743642
0.547,0.35052305820720114
0.548,0.3514135211156553
0.549,0.35230416807384135
0.55,0.353194289321997
0.551,0.35408425828681717
0.552,0.35497446726274295
0.553,0.35586453480339264
0.554,0.35675446309304815
0.555,0.3576443500820902
0.556,0.3585343870580532
0.557,0.35942448764402257
0.558,0.36031458497667146
0.559,0.36120498000332424
0.56,0.3620953116896742
0.561,0.36298604363007286
0.562,0.36387817068473716
0.5630000000000001,0.36477085557265754
0.5640000000000001,0.36566259424975395
0.5650000000000001,0.36655371734855935
0.5660000000000001,0.3674457220023407
0.5670000000000001,0.3683382703173517
0.5680000000000001,0.3692300814556299
0.5690000000000001,0.3701217124951824
0.5700000000000001,0.37101359172499604
0.5710000000000001,0.3719059349334162
0.5720000000000001,0.37279916961535225
0.5730000000000001,0.3736919275745823
0.5740000000000001,0.3745838505543624
0.5750000000000001,0.37547602093814253
0.5760000000000001,0.3763683965763036
0.5770000000000001,0.37726031408290683
0.5780000000000001,0.3781517933227599
0.5790000000000001,0.37904338223528883
0.5800000000000001,0.3799353211693338
0.5810000000000001,0.38082758185456134
0.5820000000000001,0.3817201731763138
0.5830000000000001,0.38261326687145936
0.5840000000000001,0.38350674955449254
0.5850000000000001,0.3844000003336487
0.5860000000000001,0.3852931901401427
0.5870000000000001,0.3861867025315758
0.5880000000000001,0.3870800969463152
0.5890000000000001,0.3879740696958455
0.5900000000000001,0.3888690746783145
0.5910000000000001,0.3897640178220101
0.5920000000000001,0.3906588098425994
0.5930000000000001,0.3915543017112197
0.5940000000000001,0.39245053527600626
0.5950000000000001,0.3933469199228719
0.5960000000000001,0.3942439604131486
0.5970000000000001,0.39514286108272506
0.5980000000000001,0.3960439398273853
0.5990000000000001,0.39694666028191633
0.6000000000000001,0.3978495143490161
0.6010000000000001,0.3987516936656956
0.6020000000000001,0.39965506802338074
0.6030000000000001,0.40056001834359267
0.6040000000000001,0.4014635123328542
0.6050000000000001,0.4023635258521538
0.6060000000000001,0.40326145310818134
0.6070000000000001,0.4041593675287123
0.6080000000000001,0.40505697587376843
0.6090000000000001,0.4059546124457495
0.6100000000000001,0.4068539198181536
0.6110000000000001,0.4077551525072817
0.6120000000000001,0.4086590009361846
0.6130000000000001,0.4095671143697359
0.6140000000000001,0.4104792908766184
0.6150000000000001,0.411392361244695
0.6160000000000001,0.41230429891430337
0.6170000000000001,0.4132179267832369
0.6180000000000001,0.41413403981224234
0.6190000000000001,0.41504805520710086
0.6200000000000001,0.41595640659783545
0.6210000000000001,0.41685998420164655
0.6220000000000001,0.41776215747601736
0.6230000000000001,0.418664751684132
0.6240000000000001,0.41956798634039527
0.6250000000000001,0.42047225303535285
0.6260000000000001,0.4213776940222838
0.6270000000000001,0.4222844265060284
0.6280000000000001,0.4231932494027388
0.6290000000000001,0.42410500163793285
0.6300000000000001,0.4250195886910453
0.6310000000000001,0.42593588972896007
0.6320000000000001,0.42685334339322756
0.6330000000000001,0.4277723494548
0.6340000000000001,0.42869209203329545
0.6350000000000001,0.4296113138510897
0.6360000000000001,0.4305305573130985
0.6370000000000001,0.43145088218511973
0.6380000000000001,0.43237235565758314
0.6390000000000001,0.43329437580568586
0.6400000000000001,0.43421652662826526
0.6410000000000001,0.4351389976568365
0.6420000000000001,0.4360618830877623
0.6430000000000001,0.4369849170509138
0.6440000000000001,0.43790801659952605
0.6450000000000001,0.43883128589388204
0.6460000000000001,0.43975474341059617
0.6470000000000001,0.4406783473487994
0.6480000000000001,0.4416020692527655
0.6490000000000001,0.4425259021864261
0.6500000000000001,0.44344984991957265
0.6510000000000001,0.4443739128178155
0.6520000000000001,0.4452980851644254
0.6530000000000001,0.4462223583975555
0.6540000000000001,0.4471467266168717
0.6550000000000001,0.44807119474868656
0.6560000000000001,0.44899578106569804
0.6570000000000001,0.4499204949956905
0.6580000000000001,0.45084532378129805
0.6590000000000001,0.4517702594131563
0.6600000000000001,0.45269530923893025
0.6610000000000001,0.45362047523214516
0.6620000000000001,0.4545457509496397
0.6630000000000001,0.45547113280583645
0.6640000000000001,0.4563966211493796
0.6650000000000001,0.45732221703306325
0.6660000000000001,0.4582479211502131
0.6670000000000001,0.4591737335147245
0.6680000000000001,0.4600996534697546
0.6690000000000002,0.46102567991708554
0.6700000000000002,0.46195181178942857
0.6710000000000002,0.4628780491834552
0.6720000000000002,0.4638043935612394
0.6730000000000002,0.46473084317326574
0.6740000000000002,0.4656573933976559
0.6750000000000002,0.46658405273855025
0.6760000000000002,0.46751083133272875
0.6770000000000002,0.46843768313332274
0.6780000000000002,0.4693645353695535
0.6790000000000002,0.47029141241213107
0.6800000000000002,0.47121840175357227
0.6810000000000002,0.47214549422290947
0.6820000000000002,0.47307252847772696
0.6830000000000002,0.4739992441468324
0.6840000000000002,0.4749255188119573
0.6850000000000002,0.4758515081710925
0.6860000000000002,0.4767771341434975
0.6870000000000002,0.4777017747754328
0.6880000000000002,0.478625141420624
0.6890000000000002,0.47954759924962986
0.6900000000000002,0.4804685957292744
0.6910000000000002,0.481386510127299
0.6920000000000002,0.48230168089459646
0.6930000000000002,0.48321684264317305
0.6940000000000002,0.48413299594211656
0.6950000000000002,0.4850483456729519
0.6960000000000002,0.4859618447479978
0.6970000000000002,0.48687415205326323
0.6980000000000002,0.4877852634212263
0.6990000000000002,0.48869440177335205
0.7000000000000002,0.48960231045284397
0.7010000000000002,0.49051077267063686
0.7020000000000002,0.49141956794368974
0.7030000000000002,0.4923268722279488
0.7040000000000002,0.49323267556605493
0.7050000000000002,0.49413869960036366
0.7060000000000002,0.4950452935150759
0.7070000000000002,0.4959513653951233
0.7080000000000002,0.49685695692578735
0.7090000000000002,0.4977632540054453
0.7100000000000002,0.49867027822306204
0.7110000000000002,0.49957684647747513
0.7120000000000002,0.5004827452156819
0.7130000000000002,0.5013889553205745
0.7140000000000002,0.5022957457169522
0.7150000000000002,0.503202260327961
0.7160000000000002,0.5041080015322428
0.7170000000000002,0.5050133562822997
0.7180000000000002,0.5059186475648481
0.7190000000000002,0.5068236765667513
0.7200000000000002,0.5077282527843154
0.7210000000000002,0.5086325420918175
0.7220000000000002,0.509536861520122
0.7230000000000002,0.5104414535260194
0.7240000000000002,0.5113463430134612
0.7250000000000002,0.5122512582579457
0.7260000000000002,0.5131557469894156
0.7270000000000002,0.5140594818373184
0.7280000000000002,0.5149630902029778
0.7290000000000002,0.5158663964067702
0.7300000000000002,0.5167696373897652
0.7310000000000002,0.517673423050265
0.7320000000000002,0.5185777347488596
0.7330000000000002,0.5194820788040794
0.7340000000000002,0.5203862048845284
0.7350000000000002,0.5212904856168249
0.7360000000000002,0.522194728319903
0.7370000000000002,0.5230993526504663
0.7380000000000002,0.5240040386176491
0.7390000000000002,0.5249083735448182
0.7400000000000002,0.5258123699390026
0.7410000000000002,0.526716102715062
0.7420000000000002,0.5276202526113096
0.7430000000000002,0.5285262973814444
0.7440000000000002,0.5294319692518448
0.7450000000000002,0.5303360726927616
0.7460000000000002,0.5312402555153671
0.7470000000000002,0.5321442416378752
0.7480000000000002,0.5330484180090258
0.7490000000000002,0.5339530278639967
0.7500000000000002,0.5348587333398375
0.7510000000000002,0.5357648239502629
0.7520000000000002,0.5366699853924571
0.7530000000000002,0.5375749585046656
0.7540000000000002,0.5384805076557301
0.7550000000000002,0.5393867118063922
0.7560000000000002,0.5402929636656983
0.7570000000000002,0.5411980472010941
0.7580000000000002,0.5421025581757712
0.7590000000000002,0.5430070267711992
0.7600000000000002,0.5439111720072274
0.7610000000000002,0.5448153836248821
0.7620000000000002,0.5457198965174475
0.7630000000000002,0.546624500505006
0.7640000000000002,0.5475295115945649
0.7650000000000002,0.5484346311075593
0.7660000000000002,0.5493401149289873
0.7670000000000002,0.5502458960443539
0.7680000000000002,0.5511517383727415
0.7690000000000002,0.552059116804964
0.7700000000000002,0.5529667711416465
0.7710000000000002,0.553873203877826
0.7720000000000002,0.5547799501611829
0.7730000000000002,0.5556878878588305
0.7740000000000002,0.5565952606675293
0.7750000000000002,0.557500950715121
0.7760000000000002,0.5584063212200597
0.7770000000000002,0.5593117219139856
0.7780000000000002,0.5602173060155221
0.7790000000000002,0.5611242193115603
0.7800000000000002,0.5620308550739057
0.7810000000000002,0.562936390218853
0.7820000000000003,0.5638424956392112
0.7830000000000003,0.5647495511114085
0.7840000000000003,0.5656573043996945
0.7850000000000003,0.566566575749134
0.7860000000000003,0.5674755397154412
0.7870000000000003,0.5683837506988619
0.7880000000000003,0.5692926835448473
0.7890000000000003,0.5702010525046803
0.7900000000000003,0.5711081840443283
0.7910000000000003,0.5720145600293837
0.7920000000000003,0.572920902157521
0.7930000000000003,0.5738271736985415
0.7940000000000003,0.5747334720086903
0.7950000000000003,0.5756398823346212
0.7960000000000003,0.5765465913818664
0.7970000000000003,0.5774536781410036
0.7980000000000003,0.5783604555484511
0.7990000000000003,0.579267135097081
0.8000000000000003,0.5801742429054594
0.8010000000000003,0.5810812389925699
0.8020000000000003,0.5819880825559209
0.8030000000000003,0.5828953939699082
0.8040000000000003,0.5838032639191773
0.8050000000000003,0.5847110700326897
0.8060000000000003,0.5856184771218601
0.8070000000000003,0.5865264132404068
0.8080000000000003,0.5874342945691713
0.8090000000000003,0.5883424267792425
0.8100000000000003,0.5892508837467857
0.8110000000000003,0.5901596641795704
0.8120000000000003,0.59106947962054
0.8130000000000003,0.5919783012143307
0.8140000000000003,0.5928866856369169
0.8150000000000003,0.5937969216471396
0.8160000000000003,0.5947082507761566
0.8170000000000003,0.5956191932152539
0.8180000000000003,0.5965318337988297
0.8190000000000003,0.5974445515390892
0.8200000000000003,0.5983545586868927
0.8210000000000003,0.5992672558658959
0.8220000000000003,0.6001809675401929
0.8230000000000003,0.6010973596471894
0.8240000000000003,0.602017581992852
0.8250000000000003,0.6029327146334852
0.8260000000000003,0.6038460905136295
0.8270000000000003,0.6047623147699307
0.8280000000000003,0.6056820561067041
0.8290000000000003,0.6066025365763204
0.8300000000000003,0.607523170800536
0.8310000000000003,0.6084452161954116
0.8320000000000003,0.6093684188936924
0.8330000000000003,0.6102970107204709
0.8340000000000003,0.6112265790472599
0.8350000000000003,0.6121522872395858
0.8360000000000003,0.6130796717687482
0.8370000000000003,0.614010927182223
0.8380000000000003,0.6149442160978377
0.8390000000000003,0.6158783612512474
0.8400000000000003,0.6168088571998676
0.8410000000000003,0.617739743316433
0.8420000000000003,0.6186763840385665
0.8430000000000003,0.619611425754305
0.8440000000000003,0.6205454585319272
0.8450000000000003,0.621480554243729
0.8460000000000003,0.6224107159477388
0.8470000000000003,0.6233388064752156
0.8480000000000003,0.6242704341061625
0.8490000000000003,0.625199789459213
0.8500000000000003,0.6261272511169097
0.8510000000000003,0.6270599401408353
0.8520000000000003,0.6279922676169798
0.8530000000000003,0.62892509822807
0.8540000000000003,0.6298630051646987
0.8550000000000003,0.6307976031073717
0.8560000000000003,0.6317321620298714
0.8570000000000003,0.6326704424537253
0.8580000000000003,0.6336074061552619
0.8590000000000003,0.6345451235021033
0.8600000000000003,0.6354835932856907
0.8610000000000003,0.6364225265964858
0.8620000000000003,0.6373616725667329
0.8630000000000003,0.6383010788205684
0.8640000000000003,0.639240597123886
0.8650000000000003,0.6401807964711769
0.8660000000000003,0.6411197800456216
0.8670000000000003,0.6420587551663218
0.8680000000000003,0.6429983248575029
0.8690000000000003,0.6439373845038526
0.8700000000000003,0.6448785035893644
0.8710000000000003,0.6458186936731459
0.8720000000000003,0.6467590772785486
0.8730000000000003,0.6477013355399186
0.8740000000000003,0.6486433871234133
0.8750000000000003,0.6495850355549923
0.8760000000000003,0.6505269969812586
0.8770000000000003,0.6514694889410838
0.8780000000000003,0.6524122385534425
0.8790000000000003,0.653355302932896
0.8800000000000003,0.6542984974712477
0.8810000000000003,0.6552417027767096
0.8820000000000003,0.6561849746241579
0.8830000000000003,0.6571282817070113
0.8840000000000003,0.6580716722757957
0.8850000000000003,0.6590152121374718
0.8860000000000003,0.6599587622405498
0.8870000000000003,0.6609023991658274
0.8880000000000003,0.6618461461231399
0.8890000000000003,0.6627899453627386
0.8900000000000003,0.6637338002657837
0.8910000000000003,0.6646777004968766
0.8920000000000003,0.6656216582073268
0.8930000000000003,0.6665656895639768
0.8940000000000003,0.6675097928196126
0.8950000000000004,0.6684539653295151
0.8960000000000004,0.6693981969365094
0.8970000000000004,0.6703424873431509
0.8980000000000004,0.6712868396008228
0.8990000000000004,0.6722312157542628
0.9000000000000004,0.6731756427781191
0.9010000000000004,0.6741201561128465
0.9020000000000004,0.6750647353753312
0.9030000000000004,0.6760093856504841
0.9040000000000004,0.6769540972712055
0.9050000000000004,0.6778988682869908
0.9060000000000004,0.6788436983555161
0.9070000000000004,0.6797885872683189
0.9080000000000004,0.680733535332576
0.9090000000000004,0.6816785424916697
0.9100000000000004,0.6826236084394562
0.9110000000000004,0.6835687329789082
0.9120000000000004,0.6845139158128417
0.9130000000000004,0.6854591538173714
0.9140000000000004,0.6864044507334952
0.9150000000000004,0.6873498033691051
0.9160000000000004,0.6882951555661722
0.9170000000000004,0.6892402323719885
0.9180000000000004,0.69018468656844
0.9190000000000004,0.691128749918697
0.9200000000000004,0.6920713541102855
0.9210000000000004,0.6930106472697708
0.9220000000000004,0.6939481803958939
0.9230000000000004,0.6948829089170923
0.9240000000000004,0.6958153186576204
0.9250000000000004,0.696747956440479
0.9260000000000004,0.6976805008063283
0.9270000000000004,0.6986130396866237
0.9280000000000004,0.6995440964505152
0.9290000000000004,0.7004746311030465
0.9300000000000004,0.7014082113853991
0.9310000000000004,0.7023413271535577
0.9320000000000004,0.7032729072490519
0.9330000000000004,0.7042027247929006
0.9340000000000004,0.7051288249631662
0.9350000000000004,0.7060531571693957
0.9360000000000004,0.706979459627966
0.9370000000000004,0.7079058720220283
0.9380000000000004,0.7088307468896301
0.9390000000000004,0.7097572700408306
0.9400000000000004,0.7106817000314481
0.9410000000000004,0.7116042420868569
0.9420000000000004,0.7125287551929288
0.9430000000000004,0.7134540560830179
0.9440000000000004,0.714377588399814
0.9450000000000004,0.7153007311017149
0.9460000000000004,0.7162227904140748
0.9470000000000004,0.717144209667327
0.9480000000000004,0.7180666159997615
0.9490000000000004,0.7189871804911103
0.9500000000000004,0.7199093492415859
0.9510000000000004,0.7208318853063604
0.9520000000000004,0.7217522427103769
0.9530000000000004,0.7226731545233039
0.9540000000000004,0.7235927386926698
0.9550000000000004,0.7245124598358645
0.9560000000000004,0.725432411508094
0.9570000000000004,0.7263513083928137
0.9580000000000004,0.7272698821333833
0.9590000000000004,0.7281885442642642
0.9600000000000004,0.729107167870473
0.9610000000000004,0.7300256802692584
0.9620000000000004,0.7309440761057653
0.9630000000000004,0.7318620160035547
0.9640000000000004,0.732780009766305
0.9650000000000004,0.7336984375391676
0.9660000000000004,0.7346186885894925
0.9670000000000004,0.7355390137563035
0.9680000000000004,0.7364577815156206
0.9690000000000004,0.7373763279102404
0.9700000000000004,0.7382950868477713
0.9710000000000004,0.7392143910456482
0.9720000000000004,0.7401342134188352
0.9730000000000004,0.7410544693964973
0.9740000000000004,0.7419748024073486
0.9750000000000004,0.7428951387719832
0.9760000000000004,0.7438210987855999
0.9770000000000004,0.7447477476669148
0.9780000000000004,0.745669906963847
0.9790000000000004,0.7465920211333507
0.9800000000000004,0.7475145550788262
0.9810000000000004,0.7484370138849469
0.9820000000000004,0.7493585005533684
0.9830000000000004,0.75027909735406
0.9840000000000004,0.7511988856419451
0.9850000000000004,0.7521184252654458
0.9860000000000004,0.7530378327513279
0.9870000000000004,0.7539570469467662
0.9880000000000004,0.7548761687835891
0.9890000000000004,0.7557954089432172
0.9900000000000004,0.7567144623848188
0.9910000000000004,0.7576333765476333
0.9920000000000004,0.7585521526414897
0.9930000000000004,0.7594710425786605
0.9940000000000004,0.7603900428730388
0.9950000000000004,0.7613091956003751
0.9960000000000004,0.7622285739887216
0.9970000000000004,0.7631478884875607
0.9980000000000004,0.7640670965132473
0.9990000000000004,0.7649864190580081
1.0000000000000004,0.7659057427452408
1.0010000000000003,0.7668250371204621
1.0020000000000004,0.7677443256968667
1.0030000000000006,0.7686637040922576
1.0040000000000004,0.7695832765414929
1.0050000000000003,0.7705031934388542
1.0060000000000004,0.7714229810916989
1.0070000000000006,0.77234279346865
1.0080000000000005,0.7732628249203319
1.0090000000000003,0.7741832876702932
1.0100000000000005,0.7751043806761164
1.0110000000000006,0.7760250681083558
1.0120000000000005,0.7769460466180951
1.0130000000000003,0.7778677976935762
1.0140000000000005,0.7787892734103266
1.0150000000000006,0.7797102811306681
1.0160000000000005,0.7806317876116788
1.0170000000000003,0.7815534885792634
1.0180000000000005,0.7824749012666303
1.0190000000000006,0.7833966854131601
1.0200000000000005,0.7843196700138165
1.0210000000000004,0.7852422140760101
1.0220000000000005,0.7861648552218986
1.0230000000000006,0.7870888036287323
1.0240000000000005,0.7880123089795372
1.0250000000000004,0.788936179088153
1.0260000000000005,0.7898605478662043
1.0270000000000006,0.790783247067043
1.0280000000000005,0.7917060560471466
1.0290000000000004,0.7926322876432774
1.0300000000000005,0.793558034319468
1.0310000000000006,0.79448200242187
1.0320000000000005,0.7954058303928728
1.0330000000000004,0.7963317213966153
1.0340000000000005,0.7972581195025982
1.0350000000000006,0.7981814683736485
1.0360000000000005,0.7991052893925642
1.0370000000000004,0.8000293863541478
1.0380000000000005,0.8009527076922289
1.0390000000000006,0.8018758771142915
1.0400000000000005,0.8027994465943569
1.0410000000000004,0.8037234322334113
1.0420000000000005,0.8046493789010544
1.0430000000000006,0.8055782097038553
1.0440000000000005,0.8065040072223757
1.0450000000000004,0.8074281676492852
